15491.60200	-0.0000001
15483.88706	0.0000000
15476.17212	0.0000001
15468.45718	0.0000001
15460.74224	0.0000001
15453.02729	0.0000001
15445.31235	0.0000001
15437.59741	0.0000001
15429.88247	0.0000002
15422.16753	0.0000003
15414.45259	0.0000004
15406.73765	0.0000005
15399.02271	0.0000005
15391.30776	0.0000004
15383.59282	0.0000003
15375.87788	0.0000001
15368.16294	0.0000000
15360.44800	-0.0000001
15352.73306	-0.0000001
15345.01812	-0.0000001
15337.30318	0.0000000
15329.58823	0.0000001
15321.87329	0.0000002
15314.15835	0.0000001
15306.44341	0.0000000
15298.72847	-0.0000001
15291.01353	-0.0000003
15283.29859	-0.0000005
15275.58365	-0.0000006
15267.86870	-0.0000007
15260.15376	-0.0000007
15252.43882	-0.0000006
15244.72388	-0.0000006
15237.00894	-0.0000005
15229.29400	-0.0000005
15221.57906	-0.0000004
15213.86412	-0.0000003
15206.14917	-0.0000002
15198.43423	-0.0000002
15190.71929	-0.0000002
15183.00435	-0.0000003
15175.28941	-0.0000003
15167.57447	-0.0000003
15159.85953	-0.0000003
15152.14459	-0.0000001
15144.42964	0.0000001
15136.71470	0.0000001
15128.99976	0.0000001
15121.28482	-0.0000001
15113.56988	-0.0000004
15105.85494	-0.0000007
15098.14000	-0.0000008
15090.42506	-0.0000009
15082.71012	-0.0000008
15074.99517	-0.0000006
15067.28023	-0.0000004
15059.56529	-0.0000003
15051.85035	-0.0000001
15044.13541	-0.0000000
15036.42047	0.0000001
15028.70553	0.0000003
15020.99059	0.0000003
15013.27564	0.0000003
15005.56070	0.0000001
14997.84576	-0.0000001
14990.13082	-0.0000003
14982.41588	-0.0000005
14974.70094	-0.0000006
14966.98600	-0.0000005
14959.27106	-0.0000004
14951.55611	-0.0000002
14943.84117	-0.0000000
14936.12623	0.0000001
14928.41129	0.0000002
14920.69635	0.0000003
14912.98141	0.0000003
14905.26647	0.0000002
14897.55153	0.0000001
14889.83658	-0.0000000
14882.12164	-0.0000001
14874.40670	-0.0000001
14866.69176	-0.0000000
14858.97682	-0.0000000
14851.26188	-0.0000001
14843.54694	-0.0000002
14835.83200	-0.0000003
14828.11705	-0.0000003
14820.40211	-0.0000002
14812.68717	0.0000000
14804.97223	0.0000003
14797.25729	0.0000005
14789.54235	0.0000007
14781.82741	0.0000007
14774.11247	0.0000007
14766.39752	0.0000005
14758.68258	0.0000003
14750.96764	0.0000002
14743.25270	0.0000001
14735.53776	0.0000000
14727.82282	0.0000001
14720.10788	0.0000001
14712.39294	0.0000001
14704.67799	0.0000001
14696.96305	-0.0000000
14689.24811	-0.0000000
14681.53317	-0.0000000
14673.81823	0.0000001
14666.10329	0.0000001
14658.38835	0.0000002
14650.67341	0.0000003
14642.95846	0.0000003
14635.24352	0.0000003
14627.52858	0.0000002
14619.81364	0.0000002
14612.09870	0.0000000
14604.38376	-0.0000001
14596.66882	-0.0000002
14588.95388	-0.0000003
14581.23893	-0.0000003
14573.52399	-0.0000003
14565.80905	-0.0000003
14558.09411	-0.0000002
14550.37917	-0.0000002
14542.66423	-0.0000001
14534.94929	-0.0000001
14527.23435	-0.0000002
14519.51940	-0.0000002
14511.80446	-0.0000003
14504.08952	-0.0000003
14496.37458	-0.0000002
14488.65964	-0.0000001
14480.94470	-0.0000000
14473.22976	0.0000001
14465.51482	0.0000001
14457.79988	0.0000000
14450.08493	0.0000001
14442.36999	0.0000002
14434.65505	0.0000004
14426.94011	0.0000006
14419.22517	0.0000007
14411.51023	0.0000007
14403.79529	0.0000006
14396.08035	0.0000005
14388.36540	0.0000004
14380.65046	0.0000002
14372.93552	0.0000000
14365.22058	-0.0000001
14357.50564	-0.0000003
14349.79070	-0.0000005
14342.07576	-0.0000005
14334.36082	-0.0000006
14326.64587	-0.0000006
14318.93093	-0.0000005
14311.21599	-0.0000003
14303.50105	-0.0000001
14295.78611	0.0000002
14288.07117	0.0000005
14280.35623	0.0000006
14272.64129	0.0000007
14264.92634	0.0000006
14257.21140	0.0000006
14249.49646	0.0000005
14241.78152	0.0000004
14234.06658	0.0000004
14226.35164	0.0000003
14218.63670	0.0000004
14210.92176	0.0000004
14203.20681	0.0000004
14195.49187	0.0000003
14187.77693	0.0000001
14180.06199	-0.0000002
14172.34705	-0.0000006
14164.63211	-0.0000009
14156.91717	-0.0000009
14149.20223	-0.0000007
14141.48728	-0.0000002
14133.77234	0.0000002
14126.05740	0.0000005
14118.34246	0.0000006
14110.62752	0.0000004
14102.91258	0.0000001
14095.19764	-0.0000001
14087.48270	-0.0000003
14079.76775	-0.0000003
14072.05281	-0.0000002
14064.33787	-0.0000001
14056.62293	-0.0000001
14048.90799	-0.0000001
14041.19305	-0.0000002
14033.47811	-0.0000003
14025.76317	-0.0000004
14018.04822	-0.0000003
14010.33328	-0.0000002
14002.61834	0.0000000
13994.90340	0.0000003
13987.18846	0.0000006
13979.47352	0.0000008
13971.75858	0.0000008
13964.04364	0.0000007
13956.32869	0.0000005
13948.61375	0.0000002
13940.89881	-0.0000000
13933.18387	-0.0000002
13925.46893	-0.0000002
13917.75399	-0.0000001
13910.03905	-0.0000000
13902.32411	0.0000000
13894.60916	0.0000000
13886.89422	-0.0000001
13879.17928	-0.0000001
13871.46434	-0.0000001
13863.74940	-0.0000001
13856.03446	0.0000001
13848.31952	0.0000002
13840.60458	0.0000003
13832.88963	0.0000004
13825.17469	0.0000003
13817.45975	0.0000002
13809.74481	0.0000001
13802.02987	0.0000000
13794.31493	0.0000000
13786.59999	0.0000001
13778.88505	0.0000002
13771.17011	0.0000003
13763.45516	0.0000004
13755.74022	0.0000005
13748.02528	0.0000006
13740.31034	0.0000006
13732.59540	0.0000006
13724.88046	0.0000006
13717.16552	0.0000004
13709.45058	0.0000002
13701.73563	-0.0000000
13694.02069	-0.0000001
13686.30575	-0.0000002
13678.59081	-0.0000002
13670.87587	-0.0000001
13663.16093	-0.0000000
13655.44599	-0.0000000
13647.73105	-0.0000000
13640.01610	-0.0000000
13632.30116	-0.0000001
13624.58622	-0.0000001
13616.87128	-0.0000000
13609.15634	-0.0000000
13601.44140	-0.0000000
13593.72646	0.0000000
13586.01152	0.0000000
13578.29657	0.0000000
13570.58163	0.0000000
13562.86669	-0.0000000
13555.15175	-0.0000001
13547.43681	-0.0000002
13539.72187	-0.0000002
13532.00693	-0.0000003
13524.29199	-0.0000002
13516.57704	-0.0000001
13508.86210	-0.0000000
13501.14716	0.0000001
13493.43222	0.0000001
13485.71728	0.0000001
13478.00234	0.0000001
13470.28740	0.0000000
13462.57246	-0.0000000
13454.85751	-0.0000001
13447.14257	-0.0000002
13439.42763	-0.0000002
13431.71269	-0.0000001
13423.99775	0.0000000
13416.28281	0.0000001
13408.56787	0.0000002
13400.85293	0.0000002
13393.13798	0.0000002
13385.42304	0.0000002
13377.70810	0.0000002
13369.99316	0.0000003
13362.27822	0.0000004
13354.56328	0.0000003
13346.84834	0.0000002
13339.13340	0.0000000
13331.41845	-0.0000002
13323.70351	-0.0000003
13315.98857	-0.0000002
13308.27363	-0.0000001
13300.55869	0.0000001
13292.84375	0.0000002
13285.12881	0.0000001
13277.41387	-0.0000000
13269.69892	-0.0000002
13261.98398	-0.0000004
13254.26904	-0.0000004
13246.55410	-0.0000003
13238.83916	-0.0000001
13231.12422	-0.0000000
13223.40928	-0.0000001
13215.69434	-0.0000001
13207.97939	-0.0000002
13200.26445	-0.0000002
13192.54951	-0.0000001
13184.83457	0.0000001
13177.11963	0.0000003
13169.40469	0.0000004
13161.68975	0.0000006
13153.97481	0.0000007
13146.25987	0.0000008
13138.54492	0.0000009
13130.82998	0.0000008
13123.11504	0.0000007
13115.40010	0.0000005
13107.68516	0.0000005
13099.97022	0.0000005
13092.25528	0.0000006
13084.54034	0.0000006
13076.82539	0.0000006
13069.11045	0.0000006
13061.39551	0.0000005
13053.68057	0.0000004
13045.96563	0.0000003
13038.25069	0.0000003
13030.53575	0.0000003
13022.82081	0.0000003
13015.10586	0.0000004
13007.39092	0.0000005
12999.67598	0.0000004
12991.96104	0.0000003
12984.24610	0.0000002
12976.53116	-0.0000000
12968.81622	-0.0000002
12961.10128	-0.0000005
12953.38633	-0.0000007
12945.67139	-0.0000008
12937.95645	-0.0000009
12930.24151	-0.0000009
12922.52657	-0.0000008
12914.81163	-0.0000007
12907.09669	-0.0000006
12899.38175	-0.0000005
12891.66680	-0.0000004
12883.95186	-0.0000003
12876.23692	-0.0000002
12868.52198	0.0000000
12860.80704	0.0000002
12853.09210	0.0000004
12845.37716	0.0000004
12837.66222	0.0000003
12829.94727	0.0000001
12822.23233	-0.0000001
12814.51739	-0.0000004
12806.80245	-0.0000004
12799.08751	-0.0000003
12791.37257	-0.0000001
12783.65763	0.0000002
12775.94269	0.0000004
12768.22774	0.0000005
12760.51280	0.0000004
12752.79786	0.0000003
12745.08292	0.0000002
12737.36798	0.0000001
12729.65304	0.0000001
12721.93810	0.0000001
12714.22316	0.0000001
12706.50821	0.0000002
12698.79327	0.0000004
12691.07833	0.0000005
12683.36339	0.0000005
12675.64845	0.0000005
12667.93351	0.0000004
12660.21857	0.0000004
12652.50363	0.0000005
12644.78868	0.0000006
12637.07374	0.0000006
12629.35880	0.0000007
12621.64386	0.0000007
12613.92892	0.0000006
12606.21398	0.0000005
12598.49904	0.0000004
12590.78410	0.0000003
12583.06915	0.0000002
12575.35421	0.0000001
12567.63927	0.0000000
12559.92433	0.0000001
12552.20939	0.0000001
12544.49445	0.0000001
12536.77951	0.0000001
12529.06457	0.0000002
12521.34962	0.0000003
12513.63468	0.0000004
12505.91974	0.0000004
12498.20480	0.0000003
12490.48986	0.0000002
12482.77492	0.0000001
12475.05998	0.0000001
12467.34504	0.0000001
12459.63010	0.0000001
12451.91515	0.0000001
12444.20021	-0.0000000
12436.48527	-0.0000002
12428.77033	-0.0000003
12421.05539	-0.0000004
12413.34045	-0.0000005
12405.62551	-0.0000005
12397.91057	-0.0000004
12390.19562	-0.0000003
12382.48068	-0.0000001
12374.76574	-0.0000000
12367.05080	0.0000001
12359.33586	0.0000002
12351.62092	0.0000004
12343.90598	0.0000005
12336.19104	0.0000006
12328.47609	0.0000007
12320.76115	0.0000007
12313.04621	0.0000007
12305.33127	0.0000006
12297.61633	0.0000006
12289.90139	0.0000005
12282.18645	0.0000004
12274.47151	0.0000003
12266.75656	0.0000004
12259.04162	0.0000004
12251.32668	0.0000005
12243.61174	0.0000006
12235.89680	0.0000007
12228.18186	0.0000006
12220.46692	0.0000006
12212.75198	0.0000004
12205.03703	0.0000003
12197.32209	0.0000003
12189.60715	0.0000003
12181.89221	0.0000004
12174.17727	0.0000005
12166.46233	0.0000006
12158.74739	0.0000006
12151.03245	0.0000005
12143.31750	0.0000003
12135.60256	0.0000002
12127.88762	0.0000001
12120.17268	-0.0000000
12112.45774	-0.0000002
12104.74280	-0.0000004
12097.02786	-0.0000007
12089.31292	-0.0000009
12081.59797	-0.0000010
12073.88303	-0.0000010
12066.16809	-0.0000010
12058.45315	-0.0000010
12050.73821	-0.0000009
12043.02327	-0.0000009
12035.30833	-0.0000008
12027.59339	-0.0000008
12019.87844	-0.0000007
12012.16350	-0.0000007
12004.44856	-0.0000006
11996.73362	-0.0000006
11989.01868	-0.0000005
11981.30374	-0.0000004
11973.58880	-0.0000002
11965.87386	0.0000001
11958.15891	0.0000003
11950.44397	0.0000005
11942.72903	0.0000005
11935.01409	0.0000006
11927.29915	0.0000006
11919.58421	0.0000006
11911.86927	0.0000006
11904.15433	0.0000005
11896.43938	0.0000004
11888.72444	0.0000002
11881.00950	0.0000001
11873.29456	-0.0000001
11865.57962	-0.0000002
11857.86468	-0.0000002
11850.14974	-0.0000002
11842.43480	-0.0000002
11834.71986	-0.0000001
11827.00491	-0.0000000
11819.28997	0.0000001
11811.57503	0.0000002
11803.86009	0.0000003
11796.14515	0.0000004
11788.43021	0.0000004
11780.71527	0.0000004
11773.00033	0.0000004
11765.28538	0.0000002
11757.57044	0.0000001
11749.85550	-0.0000000
11742.14056	-0.0000001
11734.42562	-0.0000001
11726.71068	-0.0000001
11718.99574	-0.0000001
11711.28080	-0.0000001
11703.56585	-0.0000000
11695.85091	0.0000001
11688.13597	0.0000002
11680.42103	0.0000003
11672.70609	0.0000003
11664.99115	0.0000002
11657.27621	0.0000001
11649.56127	0.0000001
11641.84632	0.0000002
11634.13138	0.0000003
11626.41644	0.0000004
11618.70150	0.0000005
11610.98656	0.0000005
11603.27162	0.0000004
11595.55668	0.0000003
11587.84174	0.0000001
11580.12679	0.0000001
11572.41185	0.0000001
11564.69691	0.0000001
11556.98197	0.0000002
11549.26703	0.0000001
11541.55209	0.0000000
11533.83715	-0.0000001
11526.12221	-0.0000001
11518.40726	-0.0000000
11510.69232	0.0000001
11502.97738	0.0000003
11495.26244	0.0000004
11487.54750	0.0000004
11479.83256	0.0000003
11472.11762	0.0000002
11464.40268	-0.0000000
11456.68773	-0.0000002
11448.97279	-0.0000004
11441.25785	-0.0000005
11433.54291	-0.0000005
11425.82797	-0.0000004
11418.11303	-0.0000002
11410.39809	-0.0000000
11402.68315	0.0000002
11394.96820	0.0000004
11387.25326	0.0000005
11379.53832	0.0000006
11371.82338	0.0000005
11364.10844	0.0000004
11356.39350	0.0000002
11348.67856	0.0000000
11340.96362	-0.0000001
11333.24867	-0.0000003
11325.53373	-0.0000003
11317.81879	-0.0000003
11310.10385	-0.0000002
11302.38891	-0.0000001
11294.67397	0.0000000
11286.95903	0.0000001
11279.24409	0.0000002
11271.52914	0.0000003
11263.81420	0.0000003
11256.09926	0.0000003
11248.38432	0.0000002
11240.66938	0.0000001
11232.95444	-0.0000000
11225.23950	-0.0000000
11217.52456	0.0000001
11209.80961	0.0000002
11202.09467	0.0000005
11194.37973	0.0000006
11186.66479	0.0000007
11178.94985	0.0000006
11171.23491	0.0000004
11163.51997	0.0000002
11155.80503	-0.0000001
11148.09009	-0.0000002
11140.37514	-0.0000002
11132.66020	-0.0000001
11124.94526	0.0000000
11117.23032	0.0000002
11109.51538	0.0000003
11101.80044	0.0000003
11094.08550	0.0000003
11086.37056	0.0000002
11078.65561	0.0000002
11070.94067	0.0000003
11063.22573	0.0000004
11055.51079	0.0000006
11047.79585	0.0000007
11040.08091	0.0000007
11032.36597	0.0000006
11024.65103	0.0000004
11016.93608	0.0000002
11009.22114	-0.0000000
11001.50620	-0.0000002
10993.79126	-0.0000003
10986.07632	-0.0000003
10978.36138	-0.0000003
10970.64644	-0.0000003
10962.93150	-0.0000003
10955.21655	-0.0000002
10947.50161	-0.0000002
10939.78667	-0.0000002
10932.07173	-0.0000003
10924.35679	-0.0000003
10916.64185	-0.0000003
10908.92691	-0.0000003
10901.21197	-0.0000002
10893.49702	-0.0000000
10885.78208	0.0000002
10878.06714	0.0000004
10870.35220	0.0000005
10862.63726	0.0000006
10854.92232	0.0000005
10847.20738	0.0000004
10839.49244	0.0000002
10831.77749	-0.0000000
10824.06255	-0.0000002
10816.34761	-0.0000003
10808.63267	-0.0000003
10800.91773	-0.0000004
10793.20279	-0.0000005
10785.48785	-0.0000005
10777.77291	-0.0000004
10770.05796	-0.0000002
10762.34302	0.0000000
10754.62808	0.0000002
10746.91314	0.0000003
10739.19820	0.0000003
10731.48326	0.0000003
10723.76832	0.0000004
10716.05338	0.0000005
10708.33843	0.0000006
10700.62349	0.0000007
10692.90855	0.0000006
10685.19361	0.0000006
10677.47867	0.0000005
10669.76373	0.0000005
10662.04879	0.0000005
10654.33385	0.0000005
10646.61890	0.0000005
10638.90396	0.0000004
10631.18902	0.0000003
10623.47408	0.0000003
10615.75914	0.0000004
10608.04420	0.0000004
10600.32926	0.0000004
10592.61432	0.0000004
10584.89937	0.0000003
10577.18443	0.0000002
10569.46949	0.0000001
10561.75455	0.0000001
10554.03961	0.0000000
10546.32467	-0.0000000
10538.60973	-0.0000000
10530.89479	0.0000000
10523.17985	0.0000001
10515.46490	0.0000001
10507.74996	0.0000002
10500.03502	0.0000003
10492.32008	0.0000003
10484.60514	0.0000004
10476.89020	0.0000004
10469.17526	0.0000004
10461.46032	0.0000004
10453.74537	0.0000004
10446.03043	0.0000004
10438.31549	0.0000005
10430.60055	0.0000005
10422.88561	0.0000007
10415.17067	0.0000008
10407.45573	0.0000010
10399.74079	0.0000011
10392.02584	0.0000012
10384.31090	0.0000012
10376.59596	0.0000012
10368.88102	0.0000013
10361.16608	0.0000013
10353.45114	0.0000014
10345.73620	0.0000016
10338.02126	0.0000016
10330.30631	0.0000017
10322.59137	0.0000016
10314.87643	0.0000014
10307.16149	0.0000011
10299.44655	0.0000010
10291.73161	0.0000009
10284.01667	0.0000010
10276.30173	0.0000011
10268.58678	0.0000013
10260.87184	0.0000014
10253.15690	0.0000015
10245.44196	0.0000015
10237.72702	0.0000016
10230.01208	0.0000016
10222.29714	0.0000017
10214.58220	0.0000019
10206.86725	0.0000021
10199.15231	0.0000023
10191.43737	0.0000024
10183.72243	0.0000023
10176.00749	0.0000022
10168.29255	0.0000020
10160.57761	0.0000018
10152.86267	0.0000016
10145.14772	0.0000014
10137.43278	0.0000012
10129.71784	0.0000010
10122.00290	0.0000008
10114.28796	0.0000007
10106.57302	0.0000007
10098.85808	0.0000008
10091.14314	0.0000010
10083.42819	0.0000012
10075.71325	0.0000015
10067.99831	0.0000019
10060.28337	0.0000022
10052.56843	0.0000026
10044.85349	0.0000029
10037.13855	0.0000030
10029.42361	0.0000029
10021.70866	0.0000027
10013.99372	0.0000026
10006.27878	0.0000025
9998.56384	0.0000026
9990.84890	0.0000028
9983.13396	0.0000029
9975.41902	0.0000030
9967.70408	0.0000031
9959.98913	0.0000031
9952.27419	0.0000031
9944.55925	0.0000030
9936.84431	0.0000029
9929.12937	0.0000029
9921.41443	0.0000028
9913.69949	0.0000028
9905.98455	0.0000028
9898.26960	0.0000028
9890.55466	0.0000028
9882.83972	0.0000028
9875.12478	0.0000028
9867.40984	0.0000028
9859.69490	0.0000029
9851.97996	0.0000031
9844.26502	0.0000033
9836.55008	0.0000035
9828.83513	0.0000037
9821.12019	0.0000038
9813.40525	0.0000039
9805.69031	0.0000039
9797.97537	0.0000039
9790.26043	0.0000040
9782.54549	0.0000041
9774.83055	0.0000042
9767.11560	0.0000044
9759.40066	0.0000045
9751.68572	0.0000046
9743.97078	0.0000046
9736.25584	0.0000046
9728.54090	0.0000047
9720.82596	0.0000048
9713.11102	0.0000049
9705.39607	0.0000051
9697.68113	0.0000053
9689.96619	0.0000054
9682.25125	0.0000055
9674.53631	0.0000055
9666.82137	0.0000055
9659.10643	0.0000056
9651.39149	0.0000058
9643.67654	0.0000061
9635.96160	0.0000066
9628.24666	0.0000072
9620.53172	0.0000079
9612.81678	0.0000085
9605.10184	0.0000090
9597.38690	0.0000094
9589.67196	0.0000095
9581.95701	0.0000096
9574.24207	0.0000098
9566.52713	0.0000100
9558.81219	0.0000103
9551.09725	0.0000108
9543.38231	0.0000114
9535.66737	0.0000122
9527.95243	0.0000130
9520.23748	0.0000140
9512.52254	0.0000151
9504.80760	0.0000162
9497.09266	0.0000172
9489.37772	0.0000180
9481.66278	0.0000184
9473.94784	0.0000182
9466.23290	0.0000174
9458.51795	0.0000160
9450.80301	0.0000142
9443.08807	0.0000122
9435.37313	0.0000104
9427.65819	0.0000087
9419.94325	0.0000073
9412.22831	0.0000061
9404.51337	0.0000051
9396.79842	0.0000042
9389.08348	0.0000035
9381.36854	0.0000029
9373.65360	0.0000024
9365.93866	0.0000020
9358.22372	0.0000017
9350.50878	0.0000015
9342.79384	0.0000014
9335.07889	0.0000012
9327.36395	0.0000011
9319.64901	0.0000010
9311.93407	0.0000009
9304.21913	0.0000008
9296.50419	0.0000008
9288.78925	0.0000009
9281.07431	0.0000010
9273.35936	0.0000011
9265.64442	0.0000012
9257.92948	0.0000011
9250.21454	0.0000009
9242.49960	0.0000007
9234.78466	0.0000005
9227.06972	0.0000003
9219.35478	0.0000002
9211.63984	0.0000002
9203.92489	0.0000002
9196.20995	0.0000004
9188.49501	0.0000005
9180.78007	0.0000006
9173.06513	0.0000008
9165.35019	0.0000009
9157.63525	0.0000010
9149.92031	0.0000010
9142.20536	0.0000011
9134.49042	0.0000011
9126.77548	0.0000011
9119.06054	0.0000011
9111.34560	0.0000011
9103.63066	0.0000009
9095.91572	0.0000007
9088.20078	0.0000004
9080.48583	0.0000002
9072.77089	0.0000000
9065.05595	-0.0000000
9057.34101	0.0000000
9049.62607	0.0000001
9041.91113	0.0000001
9034.19619	0.0000002
9026.48125	0.0000003
9018.76630	0.0000004
9011.05136	0.0000005
9003.33642	0.0000005
8995.62148	0.0000004
8987.90654	0.0000003
8980.19160	0.0000003
8972.47666	0.0000004
8964.76172	0.0000004
8957.04677	0.0000005
8949.33183	0.0000004
8941.61689	0.0000004
8933.90195	0.0000004
8926.18701	0.0000003
8918.47207	0.0000003
8910.75713	0.0000004
8903.04219	0.0000003
8895.32724	0.0000003
8887.61230	0.0000002
8879.89736	0.0000001
8872.18242	0.0000001
8864.46748	0.0000001
8856.75254	0.0000001
8849.03760	0.0000001
8841.32266	0.0000000
8833.60771	-0.0000000
8825.89277	-0.0000001
8818.17783	-0.0000001
8810.46289	-0.0000000
8802.74795	0.0000001
8795.03301	0.0000003
8787.31807	0.0000005
8779.60313	0.0000005
8771.88818	0.0000004
8764.17324	0.0000002
8756.45830	0.0000001
8748.74336	-0.0000001
8741.02842	-0.0000001
8733.31348	-0.0000001
8725.59854	0.0000000
8717.88360	0.0000002
8710.16865	0.0000003
8702.45371	0.0000005
8694.73877	0.0000006
8687.02383	0.0000006
8679.30889	0.0000007
8671.59395	0.0000007
8663.87901	0.0000006
8656.16407	0.0000006
8648.44912	0.0000004
8640.73418	0.0000003
8633.01924	0.0000001
8625.30430	-0.0000001
8617.58936	-0.0000001
8609.87442	0.0000000
8602.15948	0.0000002
8594.44454	0.0000004
8586.72959	0.0000005
8579.01465	0.0000006
8571.29971	0.0000006
8563.58477	0.0000006
8555.86983	0.0000004
8548.15489	0.0000003
8540.43995	0.0000002
8532.72501	0.0000001
8525.01007	0.0000001
8517.29512	0.0000001
8509.58018	-0.0000000
8501.86524	-0.0000002
8494.15030	-0.0000004
8486.43536	-0.0000006
8478.72042	-0.0000007
8471.00548	-0.0000006
8463.29054	-0.0000004
8455.57559	-0.0000001
8447.86065	0.0000002
8440.14571	0.0000003
8432.43077	0.0000003
8424.71583	0.0000003
8417.00089	0.0000003
8409.28595	0.0000003
8401.57101	0.0000003
8393.85606	0.0000003
8386.14112	0.0000003
8378.42618	0.0000002
8370.71124	0.0000001
8362.99630	0.0000001
8355.28136	0.0000001
8347.56642	0.0000001
8339.85148	0.0000002
8332.13653	0.0000003
8324.42159	0.0000003
8316.70665	0.0000003
8308.99171	0.0000003
8301.27677	0.0000003
8293.56183	0.0000003
8285.84689	0.0000003
8278.13195	0.0000004
8270.41700	0.0000004
8262.70206	0.0000004
8254.98712	0.0000003
8247.27218	0.0000003
8239.55724	0.0000001
8231.84230	-0.0000000
8224.12736	-0.0000001
8216.41242	-0.0000001
8208.69747	0.0000000
8200.98253	0.0000002
8193.26759	0.0000004
8185.55265	0.0000006
8177.83771	0.0000006
8170.12277	0.0000006
8162.40783	0.0000004
8154.69289	0.0000002
8146.97794	0.0000001
8139.26300	-0.0000001
8131.54806	-0.0000001
8123.83312	0.0000000
8116.11818	0.0000002
8108.40324	0.0000004
8100.68830	0.0000005
8092.97336	0.0000005
8085.25841	0.0000004
8077.54347	0.0000004
8069.82853	0.0000004
8062.11359	0.0000004
8054.39865	0.0000004
8046.68371	0.0000003
8038.96877	0.0000002
8031.25383	0.0000001
8023.53888	-0.0000001
8015.82394	-0.0000002
8008.10900	-0.0000002
8000.39406	-0.0000002
7992.67912	-0.0000001
7984.96418	-0.0000001
7977.24924	-0.0000000
7969.53430	-0.0000000
7961.81935	0.0000000
7954.10441	0.0000000
7946.38947	0.0000001
7938.67453	0.0000001
7930.95959	0.0000001
7923.24465	0.0000001
7915.52971	0.0000002
7907.81477	0.0000003
7900.09982	0.0000004
7892.38488	0.0000005
7884.66994	0.0000005
7876.95500	0.0000004
7869.24006	0.0000002
7861.52512	-0.0000001
7853.81018	-0.0000002
7846.09524	-0.0000002
7838.38030	-0.0000001
7830.66535	0.0000000
7822.95041	0.0000002
7815.23547	0.0000003
7807.52053	0.0000005
7799.80559	0.0000005
7792.09065	0.0000006
7784.37571	0.0000006
7776.66077	0.0000007
7768.94582	0.0000008
7761.23088	0.0000008
7753.51594	0.0000007
7745.80100	0.0000007
7738.08606	0.0000007
7730.37112	0.0000007
7722.65618	0.0000007
7714.94124	0.0000006
7707.22629	0.0000004
7699.51135	0.0000001
7691.79641	-0.0000003
7684.08147	-0.0000005
7676.36653	-0.0000005
7668.65159	-0.0000004
7660.93665	-0.0000001
7653.22171	0.0000001
7645.50676	0.0000002
7637.79182	0.0000003
7630.07688	0.0000003
7622.36194	0.0000004
7614.64700	0.0000004
7606.93206	0.0000004
7599.21712	0.0000004
7591.50218	0.0000004
7583.78723	0.0000004
7576.07229	0.0000002
7568.35735	0.0000000
7560.64241	-0.0000002
7552.92747	-0.0000003
7545.21253	-0.0000003
7537.49759	-0.0000002
7529.78265	-0.0000000
7522.06770	0.0000002
7514.35276	0.0000003
7506.63782	0.0000004
7498.92288	0.0000004
7491.20794	0.0000004
7483.49300	0.0000003
7475.77806	0.0000004
7468.06312	0.0000004
7460.34817	0.0000004
7452.63323	0.0000005
7444.91829	0.0000005
7437.20335	0.0000006
7429.48841	0.0000007
7421.77347	0.0000007
7414.05853	0.0000007
7406.34359	0.0000006
7398.62864	0.0000005
7390.91370	0.0000004
7383.19876	0.0000003
7375.48382	0.0000002
7367.76888	0.0000001
7360.05394	-0.0000001
7352.33900	-0.0000002
7344.62406	-0.0000002
7336.90911	-0.0000001
7329.19417	0.0000001
7321.47923	0.0000003
7313.76429	0.0000004
7306.04935	0.0000005
7298.33441	0.0000004
7290.61947	0.0000003
7282.90453	0.0000002
7275.18958	0.0000001
7267.47464	0.0000000
7259.75970	0.0000000
7252.04476	0.0000001
7244.32982	0.0000002
7236.61488	0.0000003
7228.89994	0.0000004
7221.18500	0.0000005
7213.47006	0.0000005
7205.75511	0.0000005
7198.04017	0.0000003
7190.32523	0.0000001
7182.61029	-0.0000000
7174.89535	-0.0000001
7167.18041	-0.0000000
7159.46547	0.0000001
7151.75053	0.0000002
7144.03558	0.0000002
7136.32064	0.0000001
7128.60570	0.0000000
7120.89076	-0.0000001
7113.17582	-0.0000001
7105.46088	-0.0000001
7097.74594	-0.0000002
7090.03100	-0.0000001
7082.31605	-0.0000001
7074.60111	-0.0000001
7066.88617	-0.0000001
7059.17123	-0.0000002
7051.45629	-0.0000003
7043.74135	-0.0000004
7036.02641	-0.0000005
7028.31147	-0.0000006
7020.59652	-0.0000006
7012.88158	-0.0000006
7005.16664	-0.0000005
6997.45170	-0.0000004
6989.73676	-0.0000003
6982.02182	-0.0000001
6974.30688	-0.0000001
6966.59194	-0.0000001
6958.87699	-0.0000003
6951.16205	-0.0000004
6943.44711	-0.0000005
6935.73217	-0.0000004
6928.01723	-0.0000002
6920.30229	0.0000000
6912.58735	0.0000001
6904.87241	0.0000001
6897.15746	0.0000000
6889.44252	-0.0000000
6881.72758	-0.0000000
6874.01264	0.0000001
6866.29770	0.0000002
6858.58276	0.0000002
6850.86782	0.0000002
6843.15288	0.0000001
6835.43793	-0.0000000
6827.72299	-0.0000002
6820.00805	-0.0000003
6812.29311	-0.0000003
6804.57817	-0.0000003
6796.86323	-0.0000003
6789.14829	-0.0000003
6781.43335	-0.0000003
6773.71840	-0.0000003
6766.00346	-0.0000004
6758.28852	-0.0000004
6750.57358	-0.0000003
6742.85864	-0.0000003
6735.14370	-0.0000002
6727.42876	-0.0000002
6719.71382	-0.0000001
6711.99887	-0.0000000
6704.28393	0.0000001
6696.56899	0.0000001
6688.85405	0.0000002
6681.13911	0.0000001
6673.42417	0.0000000
6665.70923	-0.0000001
6657.99429	-0.0000002
6650.27934	-0.0000002
6642.56440	-0.0000001
6634.84946	0.0000000
6627.13452	0.0000002
6619.41958	0.0000004
6611.70464	0.0000005
6603.98970	0.0000005
6596.27476	0.0000006
6588.55981	0.0000005
6580.84487	0.0000005
6573.12993	0.0000004
6565.41499	0.0000004
6557.70005	0.0000004
6549.98511	0.0000004
6542.27017	0.0000004
6534.55523	0.0000003
6526.84029	0.0000002
6519.12534	0.0000001
6511.41040	0.0000001
6503.69546	0.0000001
6495.98052	0.0000001
6488.26558	0.0000002
6480.55064	0.0000001
6472.83570	0.0000001
6465.12076	0.0000000
6457.40581	-0.0000000
6449.69087	-0.0000001
6441.97593	-0.0000001
6434.26099	-0.0000001
6426.54605	0.0000000
6418.83111	0.0000001
6411.11617	0.0000002
6403.40123	0.0000002
6395.68628	0.0000001
6387.97134	-0.0000001
6380.25640	-0.0000003
6372.54146	-0.0000004
6364.82652	-0.0000004
6357.11158	-0.0000003
6349.39664	-0.0000001
6341.68170	0.0000000
6333.96675	0.0000001
6326.25181	0.0000001
6318.53687	0.0000000
6310.82193	0.0000000
6303.10699	0.0000001
6295.39205	0.0000002
6287.67711	0.0000003
6279.96217	0.0000003
6272.24722	0.0000003
6264.53228	0.0000002
6256.81734	0.0000001
6249.10240	0.0000000
6241.38746	-0.0000000
6233.67252	-0.0000001
6225.95758	-0.0000002
6218.24264	-0.0000003
6210.52769	-0.0000005
6202.81275	-0.0000005
6195.09781	-0.0000005
6187.38287	-0.0000003
6179.66793	0.0000000
6171.95299	0.0000003
6164.23805	0.0000005
6156.52311	0.0000006
6148.80816	0.0000007
6141.09322	0.0000006
6133.37828	0.0000006
6125.66334	0.0000005
6117.94840	0.0000003
6110.23346	0.0000002
6102.51852	0.0000000
6094.80358	-0.0000001
6087.08863	-0.0000002
6079.37369	-0.0000003
6071.65875	-0.0000003
6063.94381	-0.0000004
6056.22887	-0.0000005
6048.51393	-0.0000005
6040.79899	-0.0000005
6033.08405	-0.0000004
6025.36910	-0.0000004
6017.65416	-0.0000004
6009.93922	-0.0000004
6002.22428	-0.0000004
5994.50934	-0.0000004
5986.79440	-0.0000003
5979.07946	-0.0000001
5971.36452	0.0000001
5963.64957	0.0000002
5955.93463	0.0000003
5948.21969	0.0000004
5940.50475	0.0000003
5932.78981	0.0000003
5925.07487	0.0000002
5917.35993	0.0000001
5909.64499	0.0000000
5901.93005	-0.0000001
5894.21510	-0.0000002
5886.50016	-0.0000002
5878.78522	-0.0000002
5871.07028	-0.0000000
5863.35534	0.0000001
5855.64040	0.0000002
5847.92546	0.0000001
5840.21052	0.0000001
5832.49557	-0.0000000
5824.78063	-0.0000001
5817.06569	-0.0000002
5809.35075	-0.0000003
5801.63581	-0.0000003
5793.92087	-0.0000004
5786.20593	-0.0000004
5778.49099	-0.0000005
5770.77604	-0.0000005
5763.06110	-0.0000005
5755.34616	-0.0000005
5747.63122	-0.0000005
5739.91628	-0.0000004
5732.20134	-0.0000004
5724.48640	-0.0000003
5716.77146	-0.0000003
5709.05651	-0.0000002
5701.34157	-0.0000001
5693.62663	0.0000001
5685.91169	0.0000003
5678.19675	0.0000004
5670.48181	0.0000004
5662.76687	0.0000003
5655.05193	0.0000002
5647.33698	0.0000001
5639.62204	-0.0000001
5631.90710	-0.0000002
5624.19216	-0.0000003
5616.47722	-0.0000003
5608.76228	-0.0000002
5601.04734	-0.0000001
5593.33240	0.0000001
5585.61745	0.0000003
5577.90251	0.0000004
5570.18757	0.0000004
5562.47263	0.0000002
5554.75769	0.0000000
5547.04275	-0.0000002
5539.32781	-0.0000003
5531.61287	-0.0000004
5523.89792	-0.0000005
5516.18298	-0.0000005
5508.46804	-0.0000004
5500.75310	-0.0000002
5493.03816	0.0000001
5485.32322	0.0000003
5477.60828	0.0000005
5469.89334	0.0000006
5462.17839	0.0000006
5454.46345	0.0000006
5446.74851	0.0000006
5439.03357	0.0000007
5431.31863	0.0000009
5423.60369	0.0000009
5415.88875	0.0000008
5408.17381	0.0000005
5400.45886	0.0000002
5392.74392	-0.0000000
5385.02898	-0.0000002
5377.31404	-0.0000002
5369.59910	-0.0000002
5361.88416	-0.0000001
5354.16922	0.0000000
5346.45428	0.0000001
5338.73933	0.0000001
5331.02439	0.0000002
5323.30945	0.0000001
5315.59451	0.0000001
5307.87957	0.0000000
5300.16463	0.0000000
5292.44969	-0.0000000
5284.73475	0.0000000
5277.01980	0.0000001
5269.30486	0.0000002
5261.58992	0.0000003
5253.87498	0.0000005
5246.16004	0.0000005
5238.44510	0.0000006
5230.73016	0.0000006
5223.01522	0.0000006
5215.30028	0.0000005
5207.58533	0.0000004
5199.87039	0.0000003
5192.15545	0.0000002
5184.44051	0.0000002
5176.72557	0.0000001
5169.01063	0.0000000
5161.29569	-0.0000001
5153.58075	-0.0000001
5145.86580	-0.0000002
5138.15086	-0.0000002
5130.43592	-0.0000003
5122.72098	-0.0000002
5115.00604	-0.0000002
5107.29110	-0.0000001
5099.57616	-0.0000001
5091.86122	0.0000000
5084.14627	0.0000001
5076.43133	0.0000002
5068.71639	0.0000002
5061.00145	0.0000001
5053.28651	-0.0000001
5045.57157	-0.0000003
5037.85663	-0.0000003
5030.14169	-0.0000001
5022.42674	0.0000001
5014.71180	0.0000004
5006.99686	0.0000006
4999.28192	0.0000006
4991.56698	0.0000005
4983.85204	0.0000004
4976.13710	0.0000003
4968.42216	0.0000003
4960.70721	0.0000003
4952.99227	0.0000004
4945.27733	0.0000005
4937.56239	0.0000004
4929.84745	0.0000003
4922.13251	0.0000001
4914.41757	-0.0000000
4906.70263	-0.0000001
4898.98768	0.0000000
4891.27274	0.0000002
4883.55780	0.0000005
4875.84286	0.0000007
4868.12792	0.0000008
4860.41298	0.0000006
4852.69804	0.0000003
4844.98310	0.0000001
4837.26815	-0.0000000
4829.55321	-0.0000000
4821.83827	-0.0000000
4814.12333	-0.0000000
4806.40839	-0.0000001
4798.69345	-0.0000001
4790.97851	-0.0000001
4783.26357	-0.0000001
4775.54862	-0.0000002
4767.83368	-0.0000003
4760.11874	-0.0000003
4752.40380	-0.0000004
4744.68886	-0.0000003
4736.97392	-0.0000001
4729.25898	0.0000002
4721.54404	0.0000004
4713.82909	0.0000006
4706.11415	0.0000006
4698.39921	0.0000004
4690.68427	0.0000002
4682.96933	0.0000000
4675.25439	-0.0000001
4667.53945	-0.0000003
4659.82451	-0.0000004
4652.10956	-0.0000005
4644.39462	-0.0000006
4636.67968	-0.0000006
4628.96474	-0.0000005
4621.24980	-0.0000003
4613.53486	-0.0000002
4605.81992	-0.0000001
4598.10498	-0.0000001
4590.39004	-0.0000002
4582.67509	-0.0000003
4574.96015	-0.0000004
4567.24521	-0.0000004
4559.53027	-0.0000002
4551.81533	0.0000000
4544.10039	0.0000003
4536.38545	0.0000006
4528.67051	0.0000007
4520.95556	0.0000007
4513.24062	0.0000006
4505.52568	0.0000006
4497.81074	0.0000006
4490.09580	0.0000006
4482.38086	0.0000007
4474.66592	0.0000007
4466.95098	0.0000006
4459.23603	0.0000005
4451.52109	0.0000002
4443.80615	-0.0000000
4436.09121	-0.0000003
4428.37627	-0.0000004
4420.66133	-0.0000005
4412.94639	-0.0000004
4405.23145	-0.0000003
4397.51650	-0.0000002
4389.80156	-0.0000002
4382.08662	-0.0000002
4374.37168	-0.0000002
4366.65674	-0.0000001
4358.94180	0.0000000
4351.22686	0.0000001
4343.51192	0.0000001
4335.79697	-0.0000001
4328.08203	-0.0000002
4320.36709	-0.0000003
4312.65215	-0.0000003
4304.93721	-0.0000003
4297.22227	-0.0000002
4289.50733	-0.0000002
4281.79239	-0.0000001
4274.07744	0.0000000
4266.36250	0.0000002
4258.64756	0.0000004
4250.93262	0.0000005
4243.21768	0.0000005
4235.50274	0.0000003
4227.78780	0.0000002
4220.07286	-0.0000000
4212.35791	-0.0000002
4204.64297	-0.0000003
4196.92803	-0.0000003
4189.21309	-0.0000003
4181.49815	-0.0000002
4173.78321	-0.0000001
4166.06827	0.0000000
4158.35333	0.0000002
4150.63838	0.0000004
4142.92344	0.0000005
4135.20850	0.0000006
4127.49356	0.0000006
4119.77862	0.0000005
4112.06368	0.0000004
4104.34874	0.0000004
4096.63380	0.0000005
4088.91885	0.0000006
4081.20391	0.0000006
4073.48897	0.0000005
4065.77403	0.0000003
4058.05909	-0.0000001
4050.34415	-0.0000004
4042.62921	-0.0000007
4034.91427	-0.0000008
4027.19932	-0.0000009
4019.48438	-0.0000008
4011.76944	-0.0000007
4004.05450	-0.0000006
3996.33956	-0.0000005
