12991.92168	0.00267
12984.20676	0.00306
12976.49185	0.00313
12968.77693	0.00288
12961.06201	0.00238
12953.34709	0.00186
12945.63217	0.00154
12937.91726	0.00152
12930.20234	0.00166
12922.48742	0.00175
12914.77250	0.00152
12907.05758	0.00081
12899.34267	-0.00055
12891.62775	-0.00263
12883.91283	-0.00536
12876.19791	-0.00829
12868.48300	-0.01060
12860.76808	-0.01132
12853.05316	-0.00994
12845.33824	-0.00680
12837.62332	-0.00299
12829.90841	0.00031
12822.19349	0.00249
12814.47857	0.00376
12806.76365	0.00467
12799.04873	0.00552
12791.33382	0.00602
12783.61890	0.00560
12775.90398	0.00397
12768.18906	0.00137
12760.47415	-0.00145
12752.75923	-0.00379
12745.04431	-0.00533
12737.32939	-0.00619
12729.61447	-0.00671
12721.89956	-0.00701
12714.18464	-0.00688
12706.46972	-0.00591
12698.75480	-0.00384
12691.03988	-0.00079
12683.32497	0.00271
12675.61005	0.00580
12667.89513	0.00765
12660.18021	0.00773
12652.46529	0.00612
12644.75038	0.00349
12637.03546	0.00078
12629.32054	-0.00119
12621.60562	-0.00208
12613.89071	-0.00210
12606.17579	-0.00186
12598.46087	-0.00201
12590.74595	-0.00294
12583.03103	-0.00455
12575.31612	-0.00625
12567.60120	-0.00732
12559.88628	-0.00726
12552.17136	-0.00613
12544.45644	-0.00446
12536.74153	-0.00292
12529.02661	-0.00193
12521.31169	-0.00156
12513.59677	-0.00153
12505.88186	-0.00148
12498.16694	-0.00114
12490.45202	-0.00047
12482.73710	0.00039
12475.02218	0.00117
12467.30727	0.00159
12459.59235	0.00133
12451.87743	0.00025
12444.16251	-0.00149
12436.44759	-0.00328
12428.73268	-0.00439
12421.01776	-0.00450
12413.30284	-0.00396
12405.58792	-0.00353
12397.87301	-0.00378
12390.15809	-0.00464
12382.44317	-0.00550
12374.72825	-0.00567
12367.01333	-0.00469
12359.29842	-0.00247
12351.58350	0.00080
12343.86858	0.00453
12336.15366	0.00777
12328.43874	0.00953
12320.72383	0.00931
12313.00891	0.00745
12305.29399	0.00504
12297.57907	0.00321
12289.86416	0.00260
12282.14924	0.00298
12274.43432	0.00347
12266.71940	0.00298
12259.00448	0.00077
12251.28957	-0.00303
12243.57465	-0.00742
12235.85973	-0.01103
12228.14481	-0.01289
12220.42989	-0.01299
12212.71498	-0.01205
12205.00006	-0.01082
12197.28514	-0.00948
12189.57022	-0.00775
12181.85531	-0.00549
12174.14039	-0.00309
12166.42547	-0.00136
12158.71055	-0.00086
12150.99563	-0.00138
12143.28072	-0.00203
12135.56580	-0.00195
12127.85088	-0.00098
12120.13596	0.00012
12112.42104	0.00027
12104.70613	-0.00101
12096.99121	-0.00312
12089.27629	-0.00478
12081.56137	-0.00509
12073.84646	-0.00427
12066.13154	-0.00347
12058.41662	-0.00368
12050.70170	-0.00481
12042.98678	-0.00582
12035.27187	-0.00576
12027.55695	-0.00468
12019.84203	-0.00339
12012.12711	-0.00255
12004.41219	-0.00185
11996.69728	-0.00043
11988.98236	0.00209
11981.26744	0.00503
11973.55252	0.00712
11965.83761	0.00757
11958.12269	0.00671
11950.40777	0.00543
11942.69285	0.00422
11934.97793	0.00270
11927.26302	0.00013
11919.54810	-0.00356
11911.83318	-0.00733
11904.11826	-0.00957
11896.40334	-0.00914
11888.68843	-0.00610
11880.97351	-0.00171
11873.25859	0.00227
11865.54367	0.00444
11857.82876	0.00431
11850.11384	0.00237
11842.39892	-0.00035
11834.68400	-0.00277
11826.96908	-0.00407
11819.25417	-0.00377
11811.53925	-0.00183
11803.82433	0.00133
11796.10941	0.00481
11788.39449	0.00761
11780.67958	0.00918
11772.96466	0.00967
11765.24974	0.00955
11757.53482	0.00892
11749.81991	0.00734
11742.10499	0.00441
11734.39007	0.00052
11726.67515	-0.00305
11718.96023	-0.00498
11711.24532	-0.00480
11703.53040	-0.00313
11695.81548	-0.00098
11688.10056	0.00098
11680.38564	0.00262
11672.67073	0.00396
11664.95581	0.00484
11657.24089	0.00482
11649.52597	0.00355
11641.81105	0.00097
11634.09614	-0.00251
11626.38122	-0.00613
11618.66630	-0.00904
11610.95138	-0.01066
11603.23647	-0.01089
11595.52155	-0.01006
11587.80663	-0.00858
11580.09171	-0.00678
11572.37679	-0.00485
11564.66188	-0.00296
11556.94696	-0.00129
11549.23204	0.00011
11541.51712	0.00122
11533.80220	0.00200
11526.08729	0.00230
11518.37237	0.00204
11510.65745	0.00135
11502.94253	0.00056
11495.22762	-0.00017
11487.51270	-0.00094
11479.79778	-0.00192
11472.08286	-0.00300
11464.36794	-0.00364
11456.65303	-0.00339
11448.93811	-0.00238
11441.22319	-0.00135
11433.50827	-0.00114
11425.79335	-0.00198
11418.07844	-0.00329
11410.36352	-0.00411
11402.64860	-0.00381
11394.93368	-0.00259
11387.21877	-0.00139
11379.50385	-0.00130
11371.78893	-0.00289
11364.07401	-0.00586
11356.35909	-0.00930
11348.64418	-0.01228
11340.92926	-0.01445
11333.21434	-0.01578
11325.49942	-0.01627
11317.78450	-0.01572
11310.06959	-0.01399
11302.35467	-0.01132
11294.63975	-0.00843
11286.92483	-0.00614
11279.20992	-0.00473
11271.49500	-0.00398
11263.78008	-0.00346
11256.06516	-0.00284
11248.35024	-0.00206
11240.63533	-0.00122
11232.92041	-0.00041
11225.20549	0.00041
11217.49057	0.00129
11209.77565	0.00221
11202.06074	0.00301
11194.34582	0.00335
11186.63090	0.00295
11178.91598	0.00183
11171.20107	0.00054
11163.48615	-0.00010
11155.77123	0.00043
11148.05631	0.00215
11140.34139	0.00446
11132.62648	0.00650
11124.91156	0.00748
11117.19664	0.00700
11109.48172	0.00507
11101.76680	0.00220
11094.05189	-0.00069
11086.33697	-0.00255
11078.62205	-0.00276
11070.90713	-0.00155
11063.19222	0.00018
11055.47730	0.00137
11047.76238	0.00154
11040.04746	0.00086
11032.33254	0.00000
11024.61763	-0.00068
11016.90271	-0.00139
11009.18779	-0.00253
11001.47287	-0.00414
10993.75795	-0.00563
10986.04304	-0.00622
10978.32812	-0.00544
10970.61320	-0.00361
10962.89828	-0.00165
10955.18337	-0.00035
10947.46845	0.00012
10939.75353	0.00023
10932.03861	0.00050
10924.32369	0.00112
10916.60878	0.00187
10908.89386	0.00231
10901.17894	0.00236
10893.46402	0.00220
10885.74910	0.00211
10878.03419	0.00223
10870.31927	0.00259
10862.60435	0.00324
10854.88943	0.00424
10847.17452	0.00536
10839.45960	0.00613
10831.74468	0.00606
10824.02976	0.00502
10816.31484	0.00342
10808.59993	0.00198
10800.88501	0.00128
10793.17009	0.00144
10785.45517	0.00215
10777.74025	0.00290
10770.02534	0.00330
10762.31042	0.00318
10754.59550	0.00262
10746.88058	0.00185
10739.16567	0.00119
10731.45075	0.00088
10723.73583	0.00095
10716.02091	0.00128
10708.30599	0.00172
10700.59108	0.00230
10692.87616	0.00318
10685.16124	0.00450
10677.44632	0.00603
10669.73140	0.00730
10662.01649	0.00781
10654.30157	0.00750
10646.58665	0.00673
10638.87173	0.00598
10631.15681	0.00534
10623.44190	0.00447
10615.72698	0.00291
10608.01206	0.00059
10600.29714	-0.00194
10592.58223	-0.00387
10584.86731	-0.00456
10577.15239	-0.00400
10569.43747	-0.00279
10561.72255	-0.00170
10554.00764	-0.00126
10546.29272	-0.00154
10538.57780	-0.00230
10530.86288	-0.00331
10523.14796	-0.00448
10515.43305	-0.00576
10507.71813	-0.00689
10500.00321	-0.00735
10492.28829	-0.00662
10484.57338	-0.00454
10476.85846	-0.00147
10469.14354	0.00186
10461.42862	0.00468
10453.71370	0.00638
10445.99879	0.00654
10438.28387	0.00497
10430.56895	0.00184
10422.85403	-0.00218
10415.13911	-0.00593
10407.42420	-0.00830
10399.70928	-0.00890
10391.99436	-0.00834
10384.27944	-0.00780
10376.56453	-0.00819
10368.84961	-0.00965
10361.13469	-0.01156
10353.41977	-0.01319
10345.70485	-0.01408
10337.98994	-0.01414
10330.27502	-0.01338
10322.56010	-0.01178
10314.84518	-0.00936
10307.13026	-0.00628
10299.41535	-0.00293
10291.70043	0.00017
10283.98551	0.00253
10276.27059	0.00378
10268.55568	0.00376
10260.84076	0.00262
10253.12584	0.00081
10245.41092	-0.00107
10237.69600	-0.00241
10229.98109	-0.00285
10222.26617	-0.00243
10214.55125	-0.00153
10206.83633	-0.00057
10199.12141	0.00022
10191.40650	0.00083
10183.69158	0.00112
10175.97666	0.00065
10168.26174	-0.00104
10160.54683	-0.00386
10152.83191	-0.00692
10145.11699	-0.00895
10137.40207	-0.00912
10129.68715	-0.00749
10121.97224	-0.00483
10114.25732	-0.00203
10106.54240	0.00026
10098.82748	0.00174
10091.11256	0.00235
10083.39765	0.00227
10075.68273	0.00201
10067.96781	0.00212
10060.25289	0.00281
10052.53798	0.00365
10044.82306	0.00381
10037.10814	0.00262
10029.39322	0.00019
10021.67830	-0.00254
10013.96339	-0.00440
10006.24847	-0.00479
9998.53355	-0.00399
9990.81863	-0.00281
9983.10371	-0.00181
9975.38880	-0.00087
9967.67388	0.00041
9959.95896	0.00199
9952.24404	0.00315
9944.52913	0.00287
9936.81421	0.00072
9929.09929	-0.00269
9921.38437	-0.00598
9913.66945	-0.00764
9905.95454	-0.00671
9898.23962	-0.00309
9890.52470	0.00250
9882.80978	0.00862
9875.09486	0.01359
9867.37995	0.01597
9859.66503	0.01519
9851.95011	0.01183
9844.23519	0.00728
9836.52028	0.00307
9828.80536	0.00019
9821.09044	-0.00107
9813.37552	-0.00086
9805.66060	0.00059
9797.94569	0.00284
9790.23077	0.00502
9782.51585	0.00601
9774.80093	0.00511
9767.08601	0.00269
9759.37110	0.00014
9751.65618	-0.00114
9743.94126	-0.00075
9736.22634	0.00041
9728.51142	0.00096
9720.79651	0.00011
9713.08159	-0.00180
9705.36667	-0.00369
9697.65175	-0.00447
9689.93684	-0.00380
9682.22192	-0.00212
9674.50700	-0.00028
9666.79208	0.00103
9659.07716	0.00163
9651.36225	0.00182
9643.64733	0.00201
9635.93241	0.00239
9628.21749	0.00274
9620.50257	0.00257
9612.78766	0.00141
9605.07274	-0.00086
9597.35782	-0.00380
9589.64290	-0.00659
9581.92799	-0.00854
9574.21307	-0.00958
9566.49815	-0.01024
9558.78323	-0.01111
9551.06831	-0.01210
9543.35340	-0.01239
9535.63848	-0.01105
9527.92356	-0.00783
9520.20864	-0.00345
9512.49372	0.00078
9504.77881	0.00381
9497.06389	0.00532
9489.34897	0.00556
9481.63405	0.00501
9473.91914	0.00393
9466.20422	0.00243
9458.48930	0.00063
9450.77438	-0.00124
9443.05946	-0.00294
9435.34455	-0.00448
9427.62963	-0.00605
9419.91471	-0.00778
9412.19979	-0.00946
9404.48487	-0.01063
9396.76996	-0.01091
9389.05504	-0.01022
9381.34012	-0.00879
9373.62520	-0.00693
9365.91029	-0.00502
9358.19537	-0.00342
9350.48045	-0.00235
9342.76553	-0.00183
9335.05061	-0.00158
9327.33570	-0.00121
9319.62078	-0.00038
9311.90586	0.00113
9304.19094	0.00337
9296.47602	0.00605
9288.76111	0.00852
9281.04619	0.00993
9273.33127	0.00980
9265.61635	0.00822
9257.90144	0.00571
9250.18652	0.00272
9242.47160	-0.00048
9234.75668	-0.00350
9227.04176	-0.00564
9219.32685	-0.00612
9211.61193	-0.00473
9203.89701	-0.00209
9196.18209	0.00077
9188.46717	0.00298
9180.75226	0.00417
9173.03734	0.00421
9165.32242	0.00309
9157.60750	0.00084
9149.89259	-0.00222
9142.17767	-0.00547
9134.46275	-0.00825
9126.74783	-0.00993
9119.03291	-0.01006
9111.31800	-0.00838
9103.60308	-0.00495
9095.88816	-0.00039
9088.17324	0.00408
9080.45832	0.00709
9072.74341	0.00773
9065.02849	0.00606
9057.31357	0.00315
9049.59865	0.00045
9041.88374	-0.00091
9034.16882	-0.00075
9026.45390	0.00015
9018.73898	0.00063
9011.02406	-0.00015
9003.30915	-0.00207
8995.59423	-0.00406
8987.87931	-0.00484
8980.16439	-0.00390
8972.44947	-0.00213
8964.73456	-0.00121
8957.01964	-0.00234
8949.30472	-0.00518
8941.58980	-0.00806
8933.87489	-0.00946
8926.15997	-0.00913
8918.44505	-0.00795
8910.73013	-0.00681
8903.01521	-0.00575
8895.30030	-0.00437
8887.58538	-0.00274
8879.87046	-0.00170
8872.15554	-0.00190
8864.44062	-0.00294
8856.72571	-0.00340
8849.01079	-0.00199
8841.29587	0.00128
8833.58095	0.00515
8825.86604	0.00801
8818.15112	0.00892
8810.43620	0.00798
8802.72128	0.00600
8795.00636	0.00404
8787.29145	0.00293
8779.57653	0.00308
8771.86161	0.00429
8764.14669	0.00590
8756.43177	0.00708
8748.71686	0.00729
8741.00194	0.00658
8733.28702	0.00544
8725.57210	0.00449
8717.85718	0.00402
8710.14227	0.00401
8702.42735	0.00425
8694.71243	0.00457
8686.99751	0.00487
8679.28260	0.00502
8671.56768	0.00494
8663.85276	0.00483
8656.13784	0.00516
8648.42292	0.00636
8640.70801	0.00824
8632.99309	0.00981
8625.27817	0.00993
8617.56325	0.00811
8609.84833	0.00492
8602.13342	0.00166
8594.41850	-0.00050
8586.70358	-0.00105
8578.98866	-0.00036
8571.27375	0.00070
8563.55883	0.00119
8555.84391	0.00060
8548.12899	-0.00087
8540.41407	-0.00240
8532.69916	-0.00303
8524.98424	-0.00223
8517.26932	-0.00018
8509.55440	0.00238
8501.83948	0.00460
8494.12457	0.00588
8486.40965	0.00609
8478.69473	0.00550
8470.97981	0.00445
8463.26490	0.00307
8455.54998	0.00131
8447.83506	-0.00083
8440.12014	-0.00312
8432.40522	-0.00508
8424.69031	-0.00631
8416.97539	-0.00660
8409.26047	-0.00584
8401.54555	-0.00385
8393.83063	-0.00064
8386.11572	0.00331
8378.40080	0.00692
8370.68588	0.00904
8362.97096	0.00903
8355.25605	0.00684
8347.54113	0.00282
8339.82621	-0.00258
8332.11129	-0.00860
8324.39637	-0.01394
8316.68146	-0.01692
8308.96654	-0.01627
8301.25162	-0.01186
8293.53670	-0.00487
8285.82178	0.00263
8278.10687	0.00855
8270.39195	0.01144
8262.67703	0.01099
8254.96211	0.00816
8247.24720	0.00476
8239.53228	0.00248
8231.81736	0.00202
8224.10244	0.00284
8216.38752	0.00378
8208.67261	0.00404
8200.95769	0.00358
8193.24277	0.00295
8185.52785	0.00258
8177.81293	0.00244
8170.09802	0.00217
8162.38310	0.00139
8154.66818	0.00004
8146.95326	-0.00155
8139.23835	-0.00276
8131.52343	-0.00304
8123.80851	-0.00223
8116.09359	-0.00080
8108.37867	0.00051
8100.66376	0.00141
8092.94884	0.00237
8085.23392	0.00418
8077.51900	0.00687
8069.80408	0.00924
8062.08917	0.00952
8054.37425	0.00690
8046.65933	0.00239
8038.94441	-0.00184
8031.22950	-0.00399
8023.51458	-0.00381
8015.79966	-0.00246
8008.08474	-0.00131
8000.36982	-0.00092
7992.65491	-0.00086
7984.93999	-0.00045
7977.22507	0.00039
7969.51015	0.00100
7961.79523	0.00042
7954.08032	-0.00167
7946.36540	-0.00460
7938.65048	-0.00711
7930.93556	-0.00835
7923.22065	-0.00846
7915.50573	-0.00821
7907.79081	-0.00803
7900.07589	-0.00750
7892.36097	-0.00576
7884.64606	-0.00248
7876.93114	0.00162
7869.21622	0.00526
7861.50130	0.00754
7853.78638	0.00843
7846.07147	0.00859
7838.35655	0.00858
7830.64163	0.00839
7822.92671	0.00746
7815.21180	0.00514
7807.49688	0.00141
7799.78196	-0.00294
7792.06704	-0.00657
7784.35212	-0.00844
7776.63721	-0.00825
7768.92229	-0.00643
7761.20737	-0.00345
7753.49245	0.00054
7745.77753	0.00553
7738.06262	0.01107
7730.34770	0.01605
7722.63278	0.01918
7714.91786	0.01985
7707.20294	0.01849
7699.48803	0.01615
7691.77311	0.01365
7684.05819	0.01122
7676.34327	0.00884
7668.62836	0.00680
7660.91344	0.00571
7653.19852	0.00592
7645.48360	0.00703
7637.76868	0.00813
7630.05377	0.00887
7622.33885	0.01009
7614.62393	0.01318
7606.90901	0.01887
7599.19409	0.02625
7591.47918	0.03322
7583.76426	0.03792
7576.04934	0.03983
7568.33442	0.03987
7560.61951	0.03965
7552.90459	0.04044
7545.18967	0.04256
7537.47475	0.04547
7529.75983	0.04829
7522.04492	0.05055
7514.33000	0.05252
7506.61508	0.05480
7498.90016	0.05766
7491.18524	0.06057
7483.47033	0.06263
7475.75541	0.06334
7468.04049	0.06304
7460.32557	0.06257
7452.61066	0.06257
7444.89574	0.06303
7437.18082	0.06348
7429.46590	0.06354
7421.75098	0.06324
7414.03607	0.06308
7406.32115	0.06360
7398.60623	0.06494
7390.89131	0.06653
7383.17639	0.06755
7375.46148	0.06748
7367.74656	0.06664
7360.03164	0.06584
7352.31672	0.06567
7344.60181	0.06594
7336.88689	0.06588
7329.17197	0.06472
7321.45705	0.06219
7313.74213	0.05867
7306.02722	0.05492
7298.31230	0.05193
7290.59738	0.05051
7282.88246	0.05098
7275.16754	0.05275
7267.45263	0.05462
7259.73771	0.05539
7252.02279	0.05464
7244.30787	0.05289
7236.59296	0.05105
7228.87804	0.04966
7221.16312	0.04843
7213.44820	0.04647
7205.73328	0.04290
7198.01837	0.03760
7190.30345	0.03131
7182.58853	0.02517
7174.87361	0.01993
7167.15869	0.01545
7159.44378	0.01082
7151.72886	0.00510
7144.01394	-0.00212
7136.29902	-0.01053
7128.58411	-0.01923
7120.86919	-0.02713
7113.15427	-0.03330
7105.43935	-0.03724
7097.72443	-0.03912
7090.00952	-0.03983
7082.29460	-0.04058
7074.57968	-0.04258
7066.86476	-0.04680
7059.14984	-0.05385
7051.43493	-0.06385
7043.72001	-0.07622
7036.00509	-0.08952
7028.29017	-0.10175
7020.57526	-0.11118
7012.86034	-0.11714
7005.14542	-0.12032
6997.43050	-0.12240
6989.71558	-0.12516
6982.00067	-0.12970
6974.28575	-0.13601
6966.57083	-0.14315
6958.85591	-0.14984
6951.14099	-0.15513
6943.42608	-0.15894
6935.71116	-0.16206
6927.99624	-0.16567
6920.28132	-0.17066
6912.56641	-0.17712
6904.85149	-0.18430
6897.13657	-0.19099
6889.42165	-0.19604
6881.70673	-0.19888
6873.99182	-0.19981
6866.27690	-0.19998
6858.56198	-0.20075
6850.84706	-0.20287
6843.13214	-0.20581
6835.41723	-0.20805
6827.70231	-0.20792
6819.98739	-0.20460
6812.27247	-0.19827
6804.55755	-0.18968
6796.84264	-0.17962
6789.12772	-0.16871
6781.41280	-0.15763
6773.69788	-0.14704
6765.98297	-0.13726
6758.26805	-0.12810
6750.55313	-0.11899
6742.83821	-0.10963
6735.12329	-0.10018
6727.40838	-0.09110
6719.69346	-0.08253
6711.97854	-0.07416
6704.26362	-0.06546
6696.54870	-0.05615
6688.83379	-0.04646
6681.11887	-0.03699
6673.40395	-0.02844
6665.68903	-0.02124
6657.97412	-0.01541
6650.25920	-0.01073
6642.54428	-0.00703
6634.82936	-0.00453
6627.11444	-0.00381
6619.39953	-0.00524
6611.68461	-0.00833
6603.96969	-0.01169
6596.25477	-0.01386
6588.53985	-0.01442
6580.82494	-0.01443
6573.11002	-0.01570
6565.39510	-0.01950
6557.68018	-0.02558
6549.96527	-0.03226
6542.25035	-0.03748
6534.53543	-0.03988
6526.82051	-0.03927
6519.10559	-0.03637
6511.39068	-0.03224
6503.67576	-0.02777
6495.96084	-0.02345
6488.24592	-0.01926
6480.53100	-0.01463
6472.81609	-0.00855
6465.10117	-0.00013
6457.38625	0.01083
6449.67133	0.02347
6441.95642	0.03632
6434.24150	0.04818
6426.52658	0.05888
6418.81166	0.06909
6411.09674	0.07949
6403.38183	0.09011
6395.66691	0.10043
6387.95199	0.11005
6380.23707	0.11908
6372.52215	0.12781
6364.80724	0.13604
6357.09232	0.14292
6349.37740	0.14763
6341.66248	0.15025
6333.94757	0.15183
6326.23265	0.15353
6318.51773	0.15555
6310.80281	0.15698
6303.08789	0.15674
6295.37298	0.15475
6287.65806	0.15201
6279.94314	0.14969
6272.22822	0.14797
6264.51330	0.14597
6256.79839	0.14269
6249.08347	0.13800
6241.36855	0.13261
6233.65363	0.12731
6225.93872	0.12227
6218.22380	0.11727
6210.50888	0.11230
6202.79396	0.10766
6195.07904	0.10353
6187.36413	0.09935
6179.64921	0.09399
6171.93429	0.08648
6164.21937	0.07677
6156.50445	0.06581
6148.78954	0.05521
6141.07462	0.04663
6133.35970	0.04108
6125.64478	0.03819
6117.92987	0.03600
6110.21495	0.03178
6102.50003	0.02366
6094.78511	0.01194
6087.07019	-0.00097
6079.35528	-0.01229
6071.64036	-0.02066
6063.92544	-0.02672
6056.21052	-0.03216
6048.49560	-0.03826
6040.78069	-0.04510
6033.06577	-0.05186
6025.35085	-0.05771
6017.63593	-0.06243
6009.92102	-0.06651
6002.20610	-0.07074
5994.49118	-0.07583
5986.77626	-0.08212
5979.06134	-0.08949
5971.34643	-0.09739
5963.63151	-0.10498
5955.91659	-0.11148
5948.20167	-0.11646
5940.48675	-0.11992
5932.77184	-0.12211
5925.05692	-0.12332
5917.34200	-0.12392
5909.62708	-0.12438
5901.91217	-0.12515
5894.19725	-0.12627
5886.48233	-0.12714
5878.76741	-0.12682
5871.05249	-0.12470
5863.33758	-0.12090
5855.62266	-0.11608
5847.90774	-0.11089
5840.19282	-0.10556
5832.47790	-0.10007
5824.76299	-0.09439
5817.04807	-0.08865
5809.33315	-0.08295
5801.61823	-0.07724
5793.90331	-0.07126
5786.18840	-0.06464
5778.47348	-0.05707
5770.75856	-0.04835
5763.04364	-0.03847
5755.32873	-0.02760
5747.61381	-0.01620
5739.89889	-0.00516
5732.18397	0.00440
5724.46905	0.01179
5716.75414	0.01750
5709.03922	0.02348
5701.32430	0.03207
5693.60938	0.04435
5685.89446	0.05915
5678.17955	0.07371
5670.46463	0.08550
5662.74971	0.09364
5655.03479	0.09905
5647.31988	0.10336
5639.60496	0.10778
5631.89004	0.11256
5624.17512	0.11724
5616.46020	0.12117
5608.74529	0.12414
5601.03037	0.12647
5593.31545	0.12864
5585.60053	0.13059
5577.88561	0.13168
5570.17070	0.13128
5562.45578	0.12970
5554.74086	0.12818
5547.02594	0.12790
5539.31103	0.12900
5531.59611	0.13047
5523.88119	0.13107
5516.16627	0.13002
5508.45135	0.12689
5500.73644	0.12114
5493.02152	0.11222
5485.30660	0.10028
5477.59168	0.08669
5469.87676	0.07356
5462.16185	0.06258
5454.44693	0.05438
5446.73201	0.04879
5439.01709	0.04556
5431.30218	0.04450
5423.58726	0.04491
5415.87234	0.04508
5408.15742	0.04280
5400.44250	0.03682
5392.72759	0.02788
5385.01267	0.01828
5377.29775	0.01038
5369.58283	0.00505
5361.86791	0.00164
5354.15300	-0.00116
5346.43808	-0.00427
5338.72316	-0.00796
5331.00824	-0.01211
5323.29333	-0.01654
5315.57841	-0.02097
5307.86349	-0.02512
5300.14857	-0.02877
5292.43365	-0.03198
5284.71874	-0.03505
5277.00382	-0.03837
5269.28890	-0.04224
5261.57398	-0.04675
5253.85906	-0.05170
5246.14415	-0.05678
5238.42923	-0.06182
5230.71431	-0.06703
5222.99939	-0.07270
5215.28448	-0.07871
5207.56956	-0.08433
5199.85464	-0.08880
5192.13972	-0.09182
5184.42480	-0.09340
5176.70989	-0.09311
5168.99497	-0.08998
5161.28005	-0.08354
5153.56513	-0.07510
5145.85021	-0.06763
5138.13530	-0.06397
5130.42038	-0.06497
5122.70546	-0.06915
5114.99054	-0.07400
5107.27563	-0.07763
5099.56071	-0.07941
5091.84579	-0.07968
5084.13087	-0.07922
5076.41595	-0.07884
5068.70104	-0.07910
5060.98612	-0.07994
5053.27120	-0.08068
5045.55628	-0.08047
5037.84136	-0.07894
5030.12645	-0.07643
5022.41153	-0.07370
5014.69661	-0.07132
5006.98169	-0.06923
4999.26678	-0.06677
4991.55186	-0.06318
4983.83694	-0.05832
4976.12202	-0.05309
4968.40710	-0.04924
4960.69219	-0.04831
4952.97727	-0.05046
4945.26235	-0.05408
4937.54743	-0.05654
4929.83251	-0.05598
4922.11760	-0.05265
4914.40268	-0.04887
4906.68776	-0.04733
4898.97284	-0.04890
4891.25793	-0.05187
4883.54301	-0.05324
4875.82809	-0.05110
4868.11317	-0.04594
4860.39825	-0.03993
4852.68334	-0.03503
4844.96842	-0.03183
4837.25350	-0.02996
4829.53858	-0.02913
4821.82366	-0.02945
4814.10875	-0.03103
4806.39383	-0.03342
4798.67891	-0.03582
4790.96399	-0.03760
4783.24907	-0.03855
4775.53416	-0.03875
4767.81924	-0.03845
4760.10432	-0.03814
4752.38940	-0.03845
4744.67449	-0.03975
4736.95957	-0.04160
4729.24465	-0.04284
4721.52973	-0.04219
4713.81481	-0.03911
4706.09990	-0.03413
4698.38498	-0.02869
4690.67006	-0.02449
4682.95514	-0.02277
4675.24022	-0.02381
4667.52531	-0.02683
4659.81039	-0.03042
4652.09547	-0.03310
4644.38055	-0.03389
4636.66564	-0.03243
4628.95072	-0.02911
4621.23580	-0.02505
4613.52088	-0.02191
4605.80596	-0.02122
4598.09105	-0.02358
4590.37613	-0.02823
4582.66121	-0.03337
4574.94629	-0.03721
4567.23137	-0.03876
4559.51646	-0.03798
4551.80154	-0.03528
4544.08662	-0.03108
4536.37170	-0.02576
4528.65679	-0.02001
4520.94187	-0.01476
4513.22695	-0.01080
4505.51203	-0.00821
4497.79711	-0.00641
4490.08220	-0.00456
4482.36728	-0.00215
4474.65236	0.00083
4466.93744	0.00408
4459.22252	0.00705
4451.50761	0.00893
4443.79269	0.00881
4436.07777	0.00629
4428.36285	0.00215
4420.64794	-0.00160
4412.93302	-0.00271
4405.21810	-0.00000
4397.50318	0.00580
4389.78826	0.01249
4382.07335	0.01770
4374.35843	0.02032
4366.64351	0.02109
4358.92859	0.02193
4351.21367	0.02453
4343.49876	0.02925
4335.78384	0.03515
4328.06892	0.04093
4320.35400	0.04584
4312.63909	0.04980
4304.92417	0.05278
4297.20925	0.05447
4289.49433	0.05458
4281.77941	0.05332
4274.06450	0.05141
4266.34958	0.04957
4258.63466	0.04812
4250.91974	0.04703
4243.20482	0.04631
4235.48991	0.04618
4227.77499	0.04696
4220.06007	0.04878
4212.34515	0.05147
4204.63024	0.05445
4196.91532	0.05678
4189.20040	0.05741
4181.48548	0.05574
4173.77056	0.05203
4166.05565	0.04733
4158.34073	0.04284
4150.62581	0.03938
4142.91089	0.03719
4135.19597	0.03619
4127.48106	0.03626
4119.76614	0.03737
4112.05122	0.03943
4104.33630	0.04219
4096.62139	0.04505
4088.90647	0.04703
4081.19155	0.04716
4073.47663	0.04520
4065.76171	0.04202
4058.04680	0.03913
4050.33188	0.03756
4042.61696	0.03716
4034.90204	0.03698
4027.18712	0.03626
4019.47221	0.03498
4011.75729	0.03355
4004.04237	0.03202
3996.32745	0.03001
3988.61254	0.02727
3980.89762	0.02434
3973.18270	0.02238
3965.46778	0.02228
3957.75286	0.02405
3950.03795	0.02674
3942.32303	0.02919
3934.60811	0.03059
3926.89319	0.03067
3919.17827	0.02932
3911.46336	0.02648
3903.74844	0.02220
3896.03352	0.01699
3888.31860	0.01183
3880.60368	0.00773
3872.88877	0.00513
3865.17385	0.00391
3857.45893	0.00375
3849.74401	0.00452
3842.02910	0.00598
3834.31418	0.00736
3826.59926	0.00741
3818.88434	0.00543
3811.16942	0.00217
3803.45451	-0.00035
3795.73959	-0.00046
3788.02467	0.00169
3780.30975	0.00414
3772.59483	0.00475
3764.87992	0.00289
3757.16500	-0.00028
3749.45008	-0.00303
3741.73516	-0.00447
3734.02025	-0.00496
3726.30533	-0.00529
3718.59041	-0.00578
3710.87549	-0.00588
3703.16057	-0.00478
3695.44566	-0.00209
3687.73074	0.00176
3680.01582	0.00569
3672.30090	0.00835
3664.58598	0.00849
3656.87107	0.00535
3649.15615	-0.00084
3641.44123	-0.00855
3633.72631	-0.01524
3626.01140	-0.01857
3618.29648	-0.01784
3610.58156	-0.01446
3602.86664	-0.01099
3595.15172	-0.00932
3587.43681	-0.00952
3579.72189	-0.01024
3572.00697	-0.01009
3564.29205	-0.00880
3556.57713	-0.00729
3548.86222	-0.00672
3541.14730	-0.00747
3533.43238	-0.00891
3525.71746	-0.00984
3518.00255	-0.00940
3510.28763	-0.00756
3502.57271	-0.00505
3494.85779	-0.00267
3487.14287	-0.00083
3479.42796	0.00040
3471.71304	0.00087
3463.99812	0.00019
3456.28320	-0.00182
3448.56828	-0.00475
3440.85337	-0.00756
3433.13845	-0.00940
3425.42353	-0.01012
3417.70861	-0.01015
3409.99370	-0.00994
3402.27878	-0.00947
3394.56386	-0.00851
3386.84894	-0.00700
3379.13402	-0.00522
3371.41911	-0.00364
3363.70419	-0.00260
3355.98927	-0.00221
3348.27435	-0.00244
3340.55943	-0.00315
3332.84452	-0.00408
3325.12960	-0.00473
3317.41468	-0.00446
3309.69976	-0.00275
3301.98485	0.00019
3294.26993	0.00314
3286.55501	0.00429
3278.84009	0.00245
3271.12517	-0.00190
3263.41026	-0.00671
3255.69534	-0.00982
3247.98042	-0.01050
3240.26550	-0.00982
3232.55058	-0.00950
3224.83567	-0.01031
3217.12075	-0.01153
3209.40583	-0.01179
3201.69091	-0.01049
3193.97600	-0.00830
3186.26108	-0.00648
3178.54616	-0.00588
3170.83124	-0.00642
3163.11632	-0.00754
3155.40141	-0.00886
3147.68649	-0.01014
3139.97157	-0.01082
3132.25665	-0.00998
3124.54173	-0.00707
3116.82682	-0.00297
3109.11190	0.00008
3101.39698	-0.00010
3093.68206	-0.00390
3085.96715	-0.00958
3078.25223	-0.01464
3070.53731	-0.01764
3062.82239	-0.01873
3055.10747	-0.01885
3047.39256	-0.01856
3039.67764	-0.01744
3031.96272	-0.01455
3024.24780	-0.00932
3016.53288	-0.00245
3008.81797	0.00426
3001.10305	0.00847
2993.38813	0.00865
2985.67321	0.00521
2977.95830	0.00027
2970.24338	-0.00375
2962.52846	-0.00565
2954.81354	-0.00571
2947.09862	-0.00517
2939.38371	-0.00459
2931.66879	-0.00371
2923.95387	-0.00207
2916.23895	0.00031
2908.52403	0.00282
2900.80912	0.00458
2893.09420	0.00497
2885.37928	0.00404
2877.66436	0.00210
2869.94944	-0.00029
2862.23453	-0.00249
2854.51961	-0.00388
2846.80469	-0.00403
2839.08977	-0.00283
2831.37486	-0.00071
2823.65994	0.00157
2815.94502	0.00298
2808.23010	0.00271
2800.51518	0.00051
2792.80027	-0.00312
2785.08535	-0.00716
2777.37043	-0.01041
2769.65551	-0.01172
2761.94059	-0.01053
2754.22568	-0.00713
2746.51076	-0.00253
2738.79584	0.00200
2731.08092	0.00541
2723.36601	0.00712
2715.65109	0.00696
2707.93617	0.00487
2700.22125	0.00134
2692.50633	-0.00259
2684.79142	-0.00567
2677.07650	-0.00698
2669.36158	-0.00630
2661.64666	-0.00406
2653.93174	-0.00109
2646.21683	0.00159
2638.50191	0.00298
2630.78699	0.00261
2623.07207	0.00118
2615.35716	0.00042
2607.64224	0.00195
2599.92732	0.00590
2592.21240	0.01057
2584.49748	0.01360
2576.78257	0.01377
2569.06765	0.01129
2561.35273	0.00742
2553.63781	0.00358
2545.92289	0.00052
2538.20798	-0.00180
2530.49306	-0.00391
2522.77814	-0.00620
2515.06322	-0.00861
2507.34831	-0.01030
2499.63339	-0.01048
